Good Init

Enter signal type (0 for biphasic, 1 for pure DC):

Good Init
Enter signal type (0 for biphasic, 1 for pure DC):
Signal type set to: Biphasic
Enter frequency in Hz (1, 2, 5, 10, 20):
Frequency set to: 20.00
Enter in-line resistor value: 
In-line resistance set to: 1000000.00
20,459513.030
69,475905.340
119,483355.130
169,488166.560
220,491897.030
270,494562.030
320,496613.660
370,498745.560
420,500332.530
469,501664.780
520,502776.780
570,504041.530
620,504821.940
670,505829.940
720,506613.160
770,507550.380
821,508074.720
870,508482.130
920,509235.810
970,509956.000
1020,510485.840
1070,510854.160
1121,511038.190
1171,511796.340
1221,512062.130
1270,512559.810
1320,512858.840
1370,512927.810
1421,513576.190
1471,513729.880
1521,514074.000
1571,514101.910
1621,514411.940
1671,514913.060
1721,514942.720
1771,515017.630
1821,515242.310
1871,515551.220
1921,515858.130
1972,515742.130
2022,516085.500
2071,516199.190
2121,516271.720
2171,516584.090
2221,516816.810
2272,516729.190
2322,516765.440
2372,517075.720
2422,517078.310
2471,517350.160
2521,517503.030
2572,517300.910
2622,517580.750
2672,517733.690
2722,517650.590
2772,518159.280
2823,517964.530
2872,518000.750
2922,517959.130
2972,518351.410
3022,518546.380
3072,518387.590
3123,518585.380
3173,518627.220
3223,518382.060
3272,518780.590
3322,518822.470
3372,518733.090
3423,518579.810
3473,519054.060
3523,519017.840
3573,519054.060
3623,518772.090
3672,518892.090
3723,519409.030
3773,519529.500
3823,519162.720
3873,519162.720
3923,519045.470
3973,519562.750
4024,519523.590
4073,519285.810
4123,519490.340
4173,519285.810
4223,519361.160
4274,519442.310
4324,519526.530
4374,519517.690
4424,519285.810
4473,519719.470
4523,519523.590
4574,519692.160
4624,519764.660
4674,519644.060
4724,519523.590
4774,519565.720
4824,519767.590
4874,519725.410
4924,519689.220
4974,519252.500
5024,519818.780
5074,519972.810
5124,519409.030
5175,519652.970
5225,519773.590
5274,519565.720
5324,519855.060
5374,519815.840
5424,519649.970
5475,519933.530
5525,519812.810
5575,519776.560
5625,519459.940
5674,519707.000
5725,519864.060
5775,519462.910
5825,519628.560
5875,519818.780
5925,519580.500
5975,519900.280
6026,519782.530
6075,519830.780
6125,519661.880
6175,519589.380
6225,519824.780
6275,519755.250
6326,519755.250
6376,519634.500
6426,519513.880
6475,519721.940
6525,519601.190
6575,519607.090
6626,519640.410
6676,519842.780
6726,519718.940
6776,519610.060
6826,519489.340
6876,519694.590
6926,519845.780
6976,519450.130
7026,519649.340
7076,519770.190
7126,519616.000
7177,519616.000
7227,519498.190
7276,519658.250
7326,519341.190
7376,519703.530
7426,519616.000
7477,519383.380
7527,519697.530
7577,519223.500
7627,519271.470
7676,519552.250
7726,519349.970
7777,519633.810
7827,519392.160
7877,519232.220
7927,519398.030
7977,519358.750
8028,519440.250
8077,519075.340
8127,519165.380
8177,519642.750
8227,519195.880
8277,519089.750
8328,519291.840
8378,519367.500
8428,519249.690
8477,519440.250
8527,519364.590
8577,519255.530
8628,519053.380
8678,519297.720
8728,519334.060
8778,518899.280
8828,519300.630
8877,519017.000
8928,519064.880
8978,519306.470
9028,518947.160
9078,518986.410
9128,519109.970
9178,518795.880
9229,519275.910
9278,518717.410
9328,518961.500
9378,518961.500
9428,518795.880
9479,519315.250
9529,518840.810
9579,518644.590
9629,519133.160
9678,518765.130
9728,518725.910
9779,518728.690
9829,518930.780
9879,519169.590
9929,518568.970
9979,518692.310
10029,519127.340
10079,518653.030
10129,519090.910
10179,518658.720
10229,518667.160
10279,518818.590
10329,518583.030
10380,518667.160
10430,518830.030
10479,518787.880
10529,518832.880
10579,518507.310
10629,518709.280
10680,518827.160
10730,518742.880
10780,519232.250
10830,518428.810
10879,518560.590
10930,519080.500
10980,518597.090
11030,518524.130
11080,518364.250
11130,518330.530
11180,518571.840
11231,518369.840
11280,518493.250
11330,518647.660
11380,518254.780
11430,518659.000
11480,518535.380
11531,518103.310
11581,518585.940
11631,518336.130
11680,518423.060
11730,518425.880
11780,517909.880
11831,518918.130
11881,518467.970
11931,518075.000
11981,518274.220
12031,518072.280
12080,518279.750
12131,518153.560
12181,518083.250
12231,518125.280
12281,518164.590
12331,518125.280
12382,517808.410
12432,517931.590
12481,518220.500
12531,518170.090
12581,518054.910
12631,518054.910
12682,517973.590
12732,517939.750
12782,517895.060
12832,517743.410
12881,518425.660
12931,517900.500
12982,517788.060
13032,517866.630
13082,517628.310
13132,518313.060
13182,517751.470
13232,517560.500
13282,517759.560
13332,517675.590
13382,517762.250
13432,517681.000
13482,517288.470
13533,517773.030
13583,517565.810
13633,517728.340
13682,517291.060
13732,517296.280
13782,517500.560
13833,517529.220
13883,517419.380
13933,517461.310
13983,517063.530
14033,517511.190
14082,517348.720
14133,517228.280
14183,517508.560
14233,517291.060
14283,517312.060
14333,517395.940
14383,517115.780
14434,517359.250
14483,517037.250
14533,517123.530
14583,517482.500
14633,517202.090
14684,517047.590
14734,516770.380
14784,516736.250
14834,517060.590
14883,516498.500
14933,517175.880
14984,516741.340
15034,516508.560
15084,517220.380
15134,516866.750
15184,516667.910
15234,516788.220
15284,516315.090
15334,517031.660
15384,516793.310
15434,516555.310
15484,516840.250
15534,516516.030
15585,516329.940
15635,516403.410
15684,516327.470
15734,516570.380
15784,516329.940
15834,516253.970
15885,516572.910
15935,516097.190
15985,516457.630
16035,516180.500
16084,515908.560
16135,516232.030
16185,516308.060
16235,515955.030
16285,515835.030
16335,515719.940
16385,516359.780
16436,516197.720
16485,515803.090
16535,515881.440
16585,515570.410
16635,515969.560
16685,515763.880
16736,515768.690
16786,515927.910
16836,515651.130
16885,515623.780
16935,515420.840
16985,515501.500
17036,515780.690
17086,515699.810
17136,515506.220
17186,515623.780
17236,515190.630
17285,515672.530
17336,515510.970
17386,515434.940
17436,515515.690
17486,515273.530
17536,515287.500
17587,515319.690
17637,515160.750
17686,515606.000
17736,515437.250
17786,515400.440
17836,515363.560
17887,515241.380
17937,515372.910
17987,515338.340
18037,514822.130
18086,515502.380
18136,515372.910
18187,514907.220
18237,515299.130
18287,514667.910
18337,515303.780
18387,515216.060
18437,514831.160
18487,515507.160
18537,515262.220
18587,515107.720
18637,515027.000
18687,514796.500
18738,515153.840
18788,514801.000
18838,514801.000
18887,514764.060
18937,514644.380
18987,515001.530
19038,514724.910
19088,514807.780
19138,514925.380
19188,514376.970
19238,514816.780
19287,514655.500
19338,514422.720
19388,514740.590
19438,514342.220
19488,514701.410
19538,514701.410
19588,514229.190
19639,514745.130
19688,514235.720
19738,514198.720
19788,514398.910
19838,514277.000
19888,514200.840
19939,514083.470
19989,514248.690
20039,514442.500
20088,514046.440
20138,514172.500
20189,514096.310
20239,513974.560
20289,514292.250
20339,513857.160
20389,513824.380
20439,514139.810
20489,513906.910
20539,514146.280
20589,513595.880
20639,513674.090
20689,514229.030
20739,513637.060
20790,513521.720
20840,513956.690
20889,513021.630
20939,513723.720
20989,513484.720
21039,513410.530
21090,513928.130
21140,513412.590
21190,513492.910
21240,513377.560
21289,513062.690
21340,513734.190
21390,513420.750
21440,513105.750
21490,513146.840
21540,512812.690
21590,513583.630
21641,513068.690
21690,513225.090
21740,513468.130
21790,512988.470
21840,513431.000
21890,513342.500
21941,513111.750
21991,513466.060
22041,512881.060
22090,512843.970
22140,513045.470
22190,512585.840
22241,512695.380
22291,513051.440
22341,512617.190
22391,513012.310
22441,512769.660
22490,512740.310
22541,512855.720
22591,512701.220
22641,512863.590
22691,512816.590
22741,512898.780
22792,512583.910
22842,512007.310
22891,512669.810
22941,512628.750
22991,512397.940
23041,512746.160
23092,512548.630
23142,512830.280
23192,512708.940
23242,512317.910
23291,512722.560
23341,512521.000
23392,512362.630
23442,512444.630
23492,511475.410
23542,512450.340
23592,512563.970
23642,512172.810
23692,512448.440
23742,512130.000
23792,512452.280
23842,512057.380
23892,512297.590
23943,512334.840
23993,511981.060
24043,512180.220
24092,512217.470
24142,511297.720
24192,512146.690
24243,512062.910
24293,512064.750
24343,512223.090
24393,512061.090
24443,512616.590
24492,512457.940
24543,511906.590
24593,512542.060
24643,512418.780
24693,512144.810
24743,512189.530
24793,511063.660
24844,512392.910
24893,512075.780
24943,511917.500
24993,512040.340
25043,511876.590
25093,511962.090
25144,511965.750
25194,511610.160
25244,512004.880
25293,512036.690
25343,511921.160
25394,512159.690
25444,511114.500
25494,512208.190
25544,512077.660
25594,511730.970
25644,511967.590
25694,511730.970
25744,512045.880
25794,511891.130
25844,511734.560
25894,511777.310
25944,511578.130
25995,512014.060
26045,511892.910
26094,510929.340
26144,512056.970
26194,511973.060
26244,511853.780
26295,511932.090
26345,511620.810
26395,511937.530
26445,511894.750
26494,511706.220
26544,512023.250
26595,511546.090
26645,511788.130
26695,511668.840
26745,510552.060
26795,511590.530
26846,511825.470
26895,511629.690
26945,511711.590
26995,511747.160
27045,511627.910
27095,511789.910
27146,511437.500
27196,511868.310
27246,511247.160
27295,511368.000
27345,511330.560
27395,510444.560
27446,511569.090
27496,511213.160
27546,510862.910
27596,511455.090
27646,511254.000
27695,511296.630
27746,511405.410
27796,511061.780
27846,511417.630
27896,510866.220
27946,510910.380
27997,511260.940
28047,510219.720
28096,511186.000
28146,511063.500
28196,511341.000
28246,511262.630
28297,511334.030
28347,511152.000
28397,510879.530
28447,510639.940
28496,511310.500
28546,510997.000
28597,510613.840
28647,510765.470
28697,509493.190
28747,510538.840
28797,510532.340
28847,510459.000
28897,510579.590
28947,510533.970
28997,510462.190
29047,510617.060
29097,510380.750
29148,510504.500
29198,510382.380
29248,510190.000
29297,510501.310
29347,510190.000
29397,510470.220
29448,510387.090
29498,510233.780
29548,510193.160
29598,510310.440
29648,510321.560
29697,510395.060
29748,509882.030
29798,510519.060
29848,510357.530
29898,510005.380
29948,510360.720
29998,509120.190
30049,510122.690
30098,510006.910
30148,510319.940
30198,510279.220
30248,510042.940
30298,510125.780
30349,510442.280
30399,510006.910
30449,510324.720
30498,509773.840
30548,510287.090
30599,510097.500
30649,509585.910
30699,509670.000
30749,509431.060
30799,509823.470
30849,509785.840
30899,509704.630
30949,509868.690
30999,510019.220
31049,509627.910
31099,510142.940
31149,509981.590
31200,509940.910
31250,509674.470
31299,509358.690
31349,509987.690
31399,509710.590
31449,509405.000
31500,509724.000
31550,509134.190
31600,509529.690
31650,509332.500
31699,508866.220
31749,509615.380
31800,509021.130
31850,509183.130
31900,509023.910
31950,508634.560
32000,509461.530
32051,509145.440
32100,508680.310
32150,508955.310
32200,508637.250
32250,509271.380
32300,509111.910
32351,508524.000
32401,509152.470
32451,508639.910
32500,508807.030
32550,509158.060
32600,508565.720
32651,508966.340
32701,508960.840
32751,508491.500
32801,509041.940
32851,508641.190
32900,508960.840
32951,509117.470
33001,508727.440
33051,509082.530
33101,508723.410
33151,508809.720
33202,508688.280
33252,508735.470
33301,508774.660
33351,508379.470
33401,508306.440
33451,508813.780
33502,508264.780
33552,508469.380
33602,508346.810
33652,508233.280
33701,508427.590
33751,508191.690
33802,508274.970
33852,508234.560
33902,508036.590
33952,508317.940
34002,508191.690
34052,508040.310
34102,508158.880
34152,507960.940
34202,508126.000
34252,508160.130
34302,507963.380
34352,508278.780
34403,508001.250
34453,507890.090
34502,508086.880
34552,507887.660
34602,507896.160
34653,507891.310
34703,507697.060
34753,508052.690
34803,507581.000
34853,507429.380
34902,508053.970
34953,507659.160
35003,507980.590
35053,507467.280
35103,507391.440
35153,507745.660
35203,506130.030
35254,507751.660
35303,507548.940
35353,507351.250
35403,507865.500
35453,508061.440
35503,508291.560
35554,508095.590
35604,507863.090
35654,508291.560
35703,507937.750
35753,508099.340
35804,508176.470
35854,508256.160
35904,508094.380
35954,508019.750
36004,508296.660
36054,507827.530
36104,507590.340
36154,508066.380
36204,507592.660
36254,507629.500
36304,507908.340
36354,507669.750
36405,507909.560
36455,508141.060
36504,507631.840
36554,508104.380
36604,507831.190
36654,507559.380
36705,507910.750
36755,507910.750
36805,508032.130
36855,507751.660
36904,507362.560
36954,507992.910
37005,507755.250
37055,507755.250
37105,507994.090
37155,507800.440
37205,507913.250
37256,507716.030
37305,507760.000
37355,507875.250
37405,507875.250
37455,507956.130
37505,507325.720
37556,507215.060
37606,507492.690
37656,507219.500
37705,507141.220
37755,507021.590
37805,507456.910
37856,507415.440
37906,507217.280
37956,506946.590
38006,507061.810
38056,507259.810
38105,507494.970
38156,507222.880
38206,507184.780
38256,507458.060
38306,507412.000
38356,507651.880
38407,507259.810
38457,507181.500
38506,507846.910
38556,507728.000
38606,507767.220
38656,507341.590
38707,507500.780
38757,507653.060
38807,507300.130
38857,508232.220
38906,507616.190
38956,507775.630
39007,507581.630
39057,507656.630
39107,507028.090
39157,507348.380
39207,507545.840
39257,507268.780
39307,507109.750
39357,507189.250
39407,507269.940
39457,507032.470
39507,507231.810
39557,507310.310
39608,507074.940
39658,507235.160
39707,507309.160
39757,506919.220
39807,507158.880
39858,507155.590
39908,506918.160
39958,507080.410
40008,507277.810
40058,507351.810
40107,507155.590
40158,507235.160
40208,507161.130
40258,507392.220
40308,507278.940
40358,506960.560
40408,506922.440
40459,507162.190
40508,507433.810
40558,507313.660
40608,507041.130
40658,507006.280
40708,507439.560
40759,506884.280
40809,507001.940
40859,507004.090
40908,506853.560
40958,506625.310
41008,506151.840
41059,506344.750
41109,506391.910
41159,506039.030
41209,506273.220
41259,506075.380
41309,506187.190
41359,506623.280
41409,506313.410
41459,506198.660
41509,506197.690
41559,505765.780
41610,505844.090
41660,506231.130
41709,506431.130
41759,506471.380
41809,506233.060
41859,506153.720
41910,506077.280
41960,506121.190
42010,506160.380
42060,506004.500
42109,505767.630
42159,506662.500
42210,506624.310
42260,506774.030
42310,506896.030
42360,507517.060
42410,506433.090
42461,506315.380
42510,506474.380
42560,507519.380
42610,507830.660
42660,507518.190
42710,506894.940
42761,507281.190
42811,507322.720
42861,507249.750
42910,507601.590
42960,507165.530
43010,507130.660
43061,507836.780
43111,507287.940
43161,507091.380
43211,507249.750
43261,507521.720
43310,507753.130
43361,506819.590
43411,506702.810
43461,507053.160
43511,507132.880
43561,507410.560
43612,507095.750
43662,507095.750
43711,507098.000
43761,507135.130
43811,506282.940
43861,506785.560
43912,507052.090
43962,506940.660
44012,507017.160
44062,507130.660
44111,507447.630
44161,507564.590
44212,507645.720
44262,507325.030
44312,507488.190
44362,507448.810
44412,507445.340
44462,506666.690
44512,507297.000
44562,506938.500
44612,506710.130
44662,506787.690
44712,506869.500
44762,506984.310
44813,506509.630
44863,506593.220
44912,506633.560
44962,506714.280
45012,507144.000
45063,507022.590
45113,506757.810
45163,507220.500
45213,506389.880
45263,507186.720
45312,506750.500
45363,506867.410
45413,507144.000
45463,506940.660
45513,506865.280
45563,507145.060
45613,506909.940
45664,506718.470
45713,506631.500
45763,506827.000
45813,506715.340
45863,506602.470
45913,506640.810
45964,506283.940
46014,506361.530
46064,506289.810
46113,506290.750
46163,506332.060
46213,505979.220
46264,506096.160
46314,506410.750
46364,505855.910
46414,505981.060
46464,506294.690
46514,505704.280
46564,505823.910
46614,505784.590
46664,505703.440
46714,505900.630
46764,505706.090
46815,505627.560
46865,505587.440
46914,505864.090
46964,505941.780
47014,505429.720
47064,505472.310
47115,505981.970
47165,505506.440
47215,505981.060
47265,505860.440
47314,505587.440
47364,506099.000
47415,505508.160
47465,505864.970
47515,505705.190
47565,505549.060
47615,506103.720
47666,505785.500
47715,505628.470
47765,505984.750
47815,505627.560
47865,505669.440
47915,506294.690
47966,505628.470
48016,505944.500
48066,505745.340
48115,505709.630
48165,505748.910
48215,505628.470
48266,506025.970
48316,505943.590
48366,505864.970
48416,506023.160
48466,505433.090
48515,506381.310
48566,506025.030
48616,505590.060
48666,505829.310
48716,505629.310
48766,505908.840
48816,505790.000
48867,505551.660
48916,505712.280
48966,505903.380
49016,505944.500
49066,505984.750
49117,505786.440
49167,505989.410
49217,505867.720
49267,505359.660
49316,505912.560
49366,505674.750
49417,505556.840
49467,505949.130
49517,505397.220
49567,506144.060
49617,505907.970
49667,505987.560
49717,506301.530
49767,505828.440
49817,505911.630
49867,505790.940
49917,505712.280
49967,506111.340
50018,505556.840
50068,505993.160
50117,505990.340
50167,505320.410
50217,506072.880
50268,506229.560
50318,505831.090
50368,505871.340
50418,506021.310
50468,506072.880
50517,505833.840
50568,505556.840
50618,505993.160
50668,505794.500
50718,505796.310
50768,505797.220
50818,505557.750
50869,506269.000
50918,505989.410
50968,506029.720
51018,506545.130
51068,506102.780
51118,506265.060
51169,506342.880
51219,505832.030
51269,506114.220
51318,506461.130
51368,506264.130
51418,506188.220
51469,506305.440
51519,505955.630
51569,506070.030
51619,505994.060
51669,506390.280
51719,505915.310
51769,506503.660
51819,506380.340
51869,506308.410
51919,506503.660
51969,506462.160
52020,506502.630
52070,506778.880
52119,506034.410
52169,506274.880
52219,506190.130
52269,505957.470
52320,506233.440
52370,506152.630
52420,506313.310
52470,505918.090
52519,506116.090
52569,506431.750
52620,506035.340
52670,506391.250
52720,506233.440
52770,506115.130
52820,506589.690
52871,506118.000
52920,505922.720
52970,506277.750
53020,506310.340
53070,506549.220
53120,506392.280
53171,504792.310
53221,506394.250
53271,506274.880
53320,506159.380
53370,506516.840
53420,506194.940
53471,506431.750
53521,506511.720
53571,506351.810
53621,506591.780
53671,506588.690
53720,506745.660
53771,506903.840
53821,506784.160
53871,507339.160
53921,506784.160
53971,506981.840
54021,507022.500
54072,506589.690
54121,506747.810
54171,506866.440
54221,506985.130
54271,507062.030
54322,507177.410
54372,507179.630
54422,507300.690
54472,505462.750
54521,507376.470
54571,507451.030
54622,507613.000
54672,507811.280
54722,507805.190
54772,507962.500
54822,508049.410
54872,507532.590
54922,507615.440
54972,507807.630
55022,507929.060
55072,508130.090
55122,506127.530
55172,508056.940
55223,508045.630
55273,508085.280
55322,508328.750
55372,508045.630
